Z:\data\JTB-E02\BACandBLUE\JTB-E02-203-12.D Fri Mar 08 13:00:44 2019
Start of data points
2.09532	68773
2.10343	70247
2.11155	67582
2.11968	72101
2.12780	68679
2.13593	65181
2.14405	67505
2.15217	61770
2.16030	66042
2.16842	67558
2.17653	59771
2.18467	60471
2.19278	59956
2.20092	59532
2.20903	56976
2.21715	52564
2.22528	59223
2.23340	53412
2.24153	57173
2.24965	54943
2.25777	55170
2.26590	194607
2.27402	1318080
2.28213	2599755
2.29027	1673242
2.29838	785450
2.30652	530345
2.31463	419429
2.32275	369865
2.33088	314737
2.33900	303526
2.34713	262343
2.35525	237943
2.36337	222341
2.37150	210284
2.37962	194915
2.38775	188153
2.39587	182764
2.40398	181418
2.41212	173456
2.42023	172697
2.42835	167204
2.43648	163146
2.44460	163660
2.45273	154281
2.46085	146854
2.46897	146901
2.47710	137698
2.48522	143756
2.49335	143631
2.50147	148507
2.50958	137441
2.51772	133629
2.52583	125996
2.53397	120846
2.54208	127356
2.55020	137352
2.55833	301966
2.56645	686644
2.57457	646105
2.58270	450489
2.59082	358288
2.59895	345089
2.60707	610737
2.61518	1099600
2.62332	1018176
2.63143	639988
2.63957	446816
2.64768	354762
2.65580	299488
2.66393	269424
2.67205	238958
2.68017	212629
2.68830	201387
2.69642	186082
2.70455	176927
2.71267	174433
2.72078	166802
2.72892	161796
2.73703	155005
2.74517	150490
2.75328	146387
2.76140	150566
2.76953	177621
2.77765	652850
2.78578	2469690
2.79390	3610317
2.80202	2431288
2.81015	1431107
2.81827	1074439
2.82638	885730
2.83452	725386
2.84263	609904
2.85077	518912
2.85888	455287
2.86700	402631
2.87513	365477
2.88325	329898
2.89138	299817
2.89950	270988
2.90762	250587
2.91575	240154
2.92387	221727
2.93198	214803
2.94012	203713
2.94823	202109
2.95637	189763
2.96448	208480
2.97260	211146
2.98073	195048
2.98885	189284
2.99698	197732
3.00510	197317
3.01322	188149
3.02135	182081
3.02947	166397
3.03760	158579
3.04572	154629
3.05383	149147
3.06197	150178
3.07008	147398
3.07820	228197
3.08633	835360
3.09445	2356148
3.10258	3929008
3.11070	5517024
3.11882	5624227
3.12695	3883636
3.13507	2611908
3.14320	1999423
3.15132	1602371
3.15943	1295113
3.16757	1127031
3.17568	1050619
3.18382	1119696
3.19193	1773986
3.20005	2456126
3.20818	2120675
3.21630	1541724
3.22442	1228616
3.23255	1048476
3.24067	886751
3.24880	770155
3.25692	677285
3.26503	623522
3.27317	545530
3.28128	534824
3.28942	851341
3.29753	2571358
3.30565	6640338
3.31378	1.051467E+07
3.32190	1.05312E+07
3.33002	7606286
3.33815	4955629
3.34627	3422907
3.35440	2579503
3.36252	2010022
3.37063	1635661
3.37877	1387716
3.38688	1208167
3.39502	1058845
3.40313	933657
3.41125	842230
3.41938	799281
3.42750	732160
3.43563	702058
3.44375	665044
3.45187	611496
3.46000	581126
3.46812	577574
3.47623	580114
3.48437	557561
3.49248	523348
3.50062	486172
3.50873	466986
3.51685	436089
3.52498	437188
3.53310	441110
3.54123	450057
3.54935	450203
3.55747	422179
3.56560	439286
3.57372	576386
3.58185	696050
3.58997	646204
3.59808	528689
3.60622	460727
3.61433	431772
3.62245	416689
3.63058	396092
3.63870	385391
3.64683	372669
3.65495	423109
3.66307	1327084
3.67120	6444726
3.67932	1.665504E+07
3.68745	2.17618E+07
3.69557	1.75237E+07
3.70368	1.108895E+07
3.71182	7597306
3.71993	6037987
3.72805	5118901
3.73618	4435110
3.74430	3905746
3.75243	3489390
3.76055	3127239
3.76867	2817703
3.77680	2613683
3.78492	2414724
3.79305	2261532
3.80117	2315438
3.80928	3015345
3.81742	4356606
3.82553	4789032
3.83367	3936401
3.84178	3038587
3.84990	2503139
3.85803	2236027
3.86615	2013983
3.87427	1841216
3.88240	1724195
3.89052	1620079
3.89865	1521875
3.90677	1414320
3.91488	1399030
3.92302	1474306
3.93113	1617329
3.93927	1635802
3.94738	1687080
3.95550	2492265
3.96363	4394713
3.97175	5958835
3.97987	5468567
3.98800	3846583
3.99612	3645893
4.00425	7543393
4.01237	1.637627E+07
4.02048	2.323413E+07
4.02862	2.089143E+07
4.03673	1.318963E+07
4.04487	7311340
4.05298	4627993
4.06110	3381890
4.06923	2643771
4.07735	2186589
4.08548	1922098
4.09360	1659463
4.10172	1484658
4.10985	1347049
4.11797	1216154
4.12608	1126305
4.13422	1051687
4.14233	1017773
4.15047	973933
4.15858	950972
4.16670	909969
4.17483	914419
4.18295	892341
4.19108	855031
4.19920	799430
4.20732	899837
4.21545	2029578
4.22357	5974975
4.23170	1.261248E+07
4.23982	1.785374E+07
4.24793	1.802246E+07
4.25607	1.356536E+07
4.26418	8479108
4.27230	5666248
4.28043	4069971
4.28855	3079757
4.29668	2414331
4.30480	1959706
4.31292	1612685
4.32105	1398580
4.32917	1226599
4.33730	1118439
4.34542	1043090
4.35353	1013526
4.36167	1074329
4.36978	1141308
4.37790	1131037
4.38603	981310
4.39415	834156
4.40228	739917
4.41040	666921
4.41852	638194
4.42665	603856
4.43477	585833
4.44290	558149
4.45102	554342
4.45913	515997
4.46727	493907
4.47538	487005
4.48352	476136
4.49163	456963
4.49975	457596
4.50788	440764
4.51600	443996
4.52412	429035
4.53225	433167
4.54037	420212
4.54850	442297
4.55662	444524
4.56473	438073
4.57287	401197
4.58098	386475
4.58912	382090
4.59723	364871
4.60535	360039
4.61348	370440
4.62160	416196
4.62973	572621
4.63785	864306
4.64597	1161885
4.65410	1130466
4.66222	903352
4.67033	718729
4.67847	608854
4.68658	574562
4.69472	515938
4.70283	462358
4.71095	422424
4.71908	372915
4.72720	369912
4.73533	347239
4.74345	339625
4.75157	316984
4.75970	313343
4.76782	300737
4.77593	302223
4.78407	304087
4.79218	337997
4.80032	423684
4.80843	513748
4.81655	522492
4.82468	467787
4.83280	429955
4.84093	428601
4.84905	446518
4.85717	469207
4.86530	443242
4.87342	395208
4.88155	356073
4.88967	328443
4.89778	318408
4.90592	309799
4.91403	294515
4.92215	285304
4.93028	292342
4.93840	333419
4.94653	540948
4.95465	1026188
4.96277	1736986
4.97090	2264369
4.97902	2366717
4.98715	1971448
4.99527	1546566
5.00338	1223339
5.01152	985150
5.01963	874215
5.02777	814968
5.03588	860909
5.04400	939319
5.05213	947011
5.06025	847600
5.06837	732422
5.07650	643502
5.08462	599684
5.09275	553253
5.10087	533634
5.10898	506074
5.11712	483971
5.12523	466032
5.13337	448472
5.14148	439712
5.14960	455620
5.15773	520922
5.16585	632803
5.17397	708808
5.18210	679727
5.19022	630575
5.19835	597153
5.20647	639688
5.21458	705643
5.22272	691331
5.23083	629533
5.23897	565249
5.24708	512563
5.25520	453631
5.26333	405798
5.27145	355191
5.27958	347582
5.28770	314111
5.29582	314079
5.30395	302262
5.31207	292021
5.32018	319690
5.32832	315998
5.33643	364969
5.34457	394494
5.35268	409846
5.36080	384877
5.36893	324253
5.37705	332484
5.38518	324795
5.39330	372750
5.40142	411752
5.40955	428655
5.41767	377557
5.42578	326925
5.43392	302122
5.44203	305723
5.45017	338334
5.45828	363439
5.46640	386335
5.47453	372820
5.48265	320254
5.49078	289140
5.49890	265276
5.50702	257393
5.51515	258114
5.52327	261771
5.53140	266710
5.53952	266413
5.54763	273002
5.55577	344382
5.56388	550123
5.57200	913704
5.58013	1198000
5.58825	1265295
5.59638	1060221
5.60450	815117
5.61262	578237
5.62075	443606
5.62887	370812
5.63700	333397
5.64512	306705
5.65323	276871
5.66137	265745
5.66948	259575
5.67762	270285
5.68573	314274
5.69385	344550
5.70198	382297
5.71010	372868
5.71822	353854
5.72635	305010
5.73447	273029
5.74260	248485
5.75072	245029
5.75883	226504
5.76697	221581
5.77508	205508
5.78322	211988
5.79133	204699
5.79945	205385
5.80758	194740
5.81570	197936
5.82382	209777
5.83195	194613
5.84007	197639
5.84820	199394
5.85632	189875
5.86443	194868
5.87257	186581
5.88068	199072
5.88882	187937
5.89693	185472
5.90505	184146
5.91318	201762
5.92130	215982
5.92943	226262
5.93755	213425
5.94567	192173
5.95380	196318
5.96192	244734
5.97003	351857
5.97817	571684
5.98628	810737
5.99442	894264
6.00253	816639
6.01065	636299
6.01878	442057
6.02690	351505
6.03503	285365
6.04315	259377
6.05127	229447
6.05940	216540
6.06752	214691
6.07565	203626
6.08377	199997
6.09188	195665
6.10002	194017
6.10813	186309
6.11625	182438
6.12438	207638
6.13250	308748
6.14063	470113
6.14875	659548
6.15687	705973
6.16500	598804
6.17312	461367
6.18125	349783
6.18937	295165
6.19748	273266
6.20562	246978
6.21373	236328
6.22185	235082
6.22998	232675
6.23810	236494
6.24623	240167
6.25435	278960
6.26247	335059
6.27060	365701
6.27872	342255
6.28685	291739
6.29497	261301
6.30308	238746
6.31122	238078
6.31933	232272
6.32747	235988
6.33558	233501
6.34370	229692
6.35183	237844
6.35995	227889
6.36807	215556
6.37620	217135
6.38432	224788
6.39245	224837
6.40057	226242
6.40868	230782
6.41682	217728
6.42493	217313
6.43307	216985
6.44118	223756
6.44930	222113
6.45743	230311
6.46555	233135
6.47367	227409
6.48180	231089
6.48992	226333
6.49805	234969
6.50617	229658
6.51428	233914
6.52242	227475
6.53053	238335
6.53867	239637
6.54678	232909
6.55490	245787
6.56303	314698
6.57115	505510
6.57928	813485
6.58740	1073768
6.59552	1045290
6.60365	824150
6.61177	571719
6.61988	416254
6.62802	340678
6.63613	324718
6.64427	458044
6.65238	1120606
6.66050	3143462
6.66863	6423226
6.67675	8892863
6.68488	8424040
6.69300	5905696
6.70112	3362244
6.70925	1976950
6.71737	1359236
6.72550	1060324
6.73362	922823
6.74173	777423
6.74987	673304
6.75798	607125
6.76610	536579
6.77423	490418
6.78235	449503
6.79048	405368
6.79860	363004
6.80672	352993
6.81485	336551
6.82297	311324
6.83110	297074
6.83922	289673
6.84733	298960
6.85547	316145
6.86358	332232
6.87172	329975
6.87983	323646
6.88795	285427
6.89608	236438
6.90420	211242
6.91232	192643
6.92045	190063
6.92857	181592
6.93670	177273
6.94482	162672
6.95293	163488
6.96107	161772
6.96918	184441
6.97732	225368
6.98543	251669
6.99355	258239
7.00168	230263
7.00980	200810
7.01792	205001
7.02605	200079
7.03417	200964
7.04230	206980
7.05042	244720
7.05853	298826
7.06667	351901
7.07478	385383
7.08292	371323
7.09103	330039
7.09915	270840
7.10728	222123
7.11540	203541
7.12353	181411
7.13165	171446
7.13977	179040
7.14790	199939
7.15602	232566
7.16413	279494
7.17227	329000
7.18038	292860
7.18852	242993
7.19663	215544
7.20475	238493
7.21288	397583
7.22100	904031
7.22913	1745231
7.23725	2451177
7.24537	2570016
7.25350	1952989
7.26162	1170146
7.26973	689928
7.27787	438549
7.28598	293137
7.29412	208237
7.30223	173400
7.31035	162533
7.31848	160477
7.32660	187162
7.33473	189613
7.34285	195188
7.35097	184180
7.35910	173375
7.36722	153372
7.37535	145176
7.38347	138133
7.39158	138446
7.39972	129753
7.40783	126674
7.41595	122231
7.42408	115447
7.43220	113873
7.44033	117100
7.44845	112861
7.45657	116259
7.46470	122841
7.47282	127239
7.48095	119233
7.48907	114509
7.49718	114471
7.50532	116442
7.51343	157953
7.52157	302313
7.52968	652026
7.53780	1452865
7.54593	2625796
7.55405	4095880
7.56217	5265909
7.57030	5720236
7.57842	5197359
7.58655	4018863
7.59467	2697985
7.60278	1690441
7.61092	1043978
7.61903	690979
7.62717	476929
7.63528	366505
7.64340	288896
7.65153	248403
7.65965	212541
7.66777	183641
7.67590	168498
7.68402	146932
7.69215	132782
7.70027	132082
7.70838	130330
7.71652	141123
7.72463	137977
7.73277	133928
7.74088	133213
7.74900	133760
7.75713	141097
7.76525	144139
7.77338	157463
7.78150	171763
7.78962	178201
7.79775	180516
7.80587	198244
7.81398	200587
7.82212	198389
7.83023	182724
7.83837	163056
7.84648	154171
7.85460	145913
7.86273	161717
7.87085	176153
7.87898	217119
7.88710	261834
7.89522	291285
7.90335	262933
7.91147	228202
7.91960	198450
7.92772	214043
7.93583	295232
7.94397	424563
7.95208	498919
7.96020	518199
7.96833	443853
7.97645	306676
7.98458	214341
7.99270	156509
8.00082	129377
8.00895	111142
8.01707	109670
8.02520	110821
8.03332	110528
8.04143	99908
8.04957	107743
8.05768	103437
8.06580	102011
8.07393	99931
8.08205	99275
8.09018	93745
8.09830	94977
8.10642	92321
8.11455	85919
8.12267	88604
8.13080	97947
8.13892	110170
8.14703	135692
8.15517	146965
8.16328	161778
8.17142	147192
8.17953	126260
8.18765	106033
8.19578	96068
8.20390	94723
8.21202	92614
8.22015	87166
8.22827	88507
8.23640	86177
8.24452	79375
8.25263	86062
8.26077	78482
8.26888	82778
8.27702	76753
8.28513	75317
8.29325	78148
8.30138	83082
8.30950	91672
8.31762	103735
8.32575	106928
8.33387	114458
8.34200	103838
8.35012	95652
8.35823	93952
8.36637	84863
8.37448	88913
8.38262	88896
8.39073	89642
8.39885	91178
8.40698	82889
8.41510	78839
8.42323	74904
8.43135	75501
8.43947	69817
8.44760	70268
8.45572	77963
8.46383	75635
8.47197	83574
8.48008	83610
8.48822	79621
8.49633	74368
8.50445	69025
8.51258	72939
8.52070	80297
8.52883	121854
8.53695	202695
8.54507	333299
8.55320	467338
8.56132	483568
8.56945	393982
8.57757	288424
8.58568	192208
8.59382	147496
8.60193	131198
8.61005	132734
8.61818	125574
8.62630	124021
8.63443	110010
8.64255	107000
8.65067	93433
8.65880	85351
8.66692	86214
8.67505	85613
8.68317	85099
8.69128	84931
8.69942	87029
8.70753	86265
8.71565	86208
8.72378	91447
8.73190	79511
8.74003	77738
8.74815	77550
8.75627	77536
8.76440	96219
8.77252	130554
8.78065	209906
8.78877	337007
8.79688	428883
8.80502	452017
8.81313	410926
8.82127	325143
8.82938	252939
8.83750	211057
8.84563	190054
8.85375	183164
8.86187	183288
8.87000	190988
8.87812	163659
8.88625	160660
8.89437	157619
8.90248	151624
8.91062	142867
8.91873	138070
8.92687	139105
8.93498	150837
8.94310	165103
8.95123	187256
8.95935	189091
8.96748	182842
8.97560	179222
8.98372	188071
8.99185	197020
8.99997	190103
9.00808	174554
9.01622	154547
9.02433	133907
9.03247	121765
9.04058	114021
9.04870	110767
9.05683	109311
9.06495	105464
9.07308	105981
9.08120	109705
9.08932	119714
9.09745	137942
9.10557	176026
9.11368	217412
9.12182	256072
9.12993	264861
9.13807	234813
9.14618	191435
9.15430	159905
9.16243	135304
9.17055	118078
9.17868	115848
9.18680	105144
9.19492	101429
9.20305	104796
9.21117	96626
9.21930	100621
9.22742	107609
9.23553	108828
9.24367	119801
9.25178	114917
9.25990	122202
9.26803	116883
9.27615	107826
9.28428	101667
9.29240	103479
9.30052	101154
9.30865	91317
9.31677	93595
9.32490	95282
9.33302	96312
9.34113	93242
9.34927	98692
9.35738	99114
9.36550	91288
9.37363	102702
9.38175	104846
9.38988	126590
9.39800	144334
9.40612	171485
9.41425	204367
9.42237	239266
9.43050	293692
9.43862	348633
9.44673	371773
9.45487	358195
9.46298	303946
9.47112	236447
9.47923	181672
9.48735	137051
9.49548	116511
9.50360	118446
9.51172	125328
9.51985	154326
9.52797	191301
9.53610	190623
9.54422	190667
9.55233	174825
9.56047	152056
9.56858	130583
9.57672	119954
9.58483	115046
9.59295	118350
9.60108	117087
9.60920	105465
9.61733	100689
9.62545	86434
9.63357	74093
9.64170	72832
9.64982	71253
9.65793	76219
9.66607	84342
9.67418	74432
9.68232	78546
9.69043	71497
9.69855	68916
9.70668	64211
9.71480	64422
9.72293	62690
9.73105	65807
9.73917	67677
9.74730	61960
9.75542	70429
9.76353	65577
9.77167	56734
9.77978	59148
9.78792	61477
9.79603	61468
9.80415	60666
9.81228	58104
9.82040	57918
9.82853	58829
9.83665	59521
9.84477	64141
9.85290	61398
9.86102	62367
9.86915	62400
9.87727	69246
9.88538	61156
9.89352	61996
9.90163	59755
9.90975	62654
9.91788	70598
9.92600	91089
9.93413	126341
9.94225	179091
9.95037	265732
9.95850	333864
9.96662	348703
9.97475	321477
9.98287	245810
9.99098	175773
9.99912	131886
10.00723	113627
10.01537	102989
10.02348	97351
10.03160	98299
10.03973	82929
10.04785	86688
10.05597	82279
10.06410	83566
10.07222	92193
10.08035	90209
10.08847	96704
10.09658	101662
10.10472	99240
10.11283	99522
10.12097	95840
10.12908	81075
10.13720	78669
10.14533	75919
10.15345	73056
10.16157	72069
10.16970	70365
10.17782	73071
10.18595	68836
10.19407	62943
10.20218	66472
10.21032	62630
10.21843	62798
10.22657	66475
10.23468	73096
10.24280	76702
10.25093	86330
10.25905	107897
10.26718	174477
10.27530	385304
10.28342	885882
10.29155	1776358
10.29967	2944695
10.30778	4206346
10.31592	5718781
10.32403	8020162
10.33217	1.10891E+07
10.34028	1.389125E+07
10.34840	1.470862E+07
10.35653	1.302736E+07
10.36465	9810547
10.37278	7504309
10.38090	5939324
10.38902	4652803
10.39715	3310482
10.40527	2142703
10.41340	1331160
10.42152	822330
10.42963	632409
10.43777	576882
10.44588	592467
10.45400	622081
10.46213	635787
10.47025	616137
10.47838	553068
10.48650	484990
10.49462	432233
10.50275	386440
10.51087	344254
10.51900	320998
10.52712	294552
10.53523	279006
10.54337	254896
10.55148	249764
10.55960	230755
10.56773	223397
10.57585	214282
10.58398	204274
10.59210	192700
10.60022	192780
10.60835	175270
10.61647	166074
10.62460	160693
10.63272	156162
10.64083	151423
10.64897	146460
10.65708	140209
10.66522	137317
10.67333	133342
10.68145	133451
10.68958	146976
10.69770	156730
10.70582	168306
10.71395	162877
10.72207	155086
10.73020	150053
10.73832	142861
10.74643	126795
10.75457	119129
10.76268	117262
10.77082	112306
10.77893	111558
10.78705	118649
10.79518	121929
10.80330	128312
10.81142	142510
10.81955	147058
10.82767	151772
10.83580	135007
10.84392	118222
10.85203	107230
10.86017	95413
10.86828	86806
10.87642	90420
10.88453	89918
10.89265	83866
10.90078	80400
10.90890	83310
10.91703	89865
10.92515	86218
10.93327	80794
10.94140	79483
10.94952	79807
10.95763	75428
10.96577	78821
10.97388	81185
10.98202	87289
10.99013	95702
10.99825	106629
11.00638	116624
11.01450	126893
11.02263	113801
11.03075	109157
11.03887	97655
11.04700	96094
11.05512	85717
11.06325	93007
11.07137	104218
11.07948	113950
11.08762	129253
11.09573	133705
11.10385	140390
11.11198	132297
11.12010	121374
11.12823	103538
11.13635	97358
11.14447	83803
11.15260	84601
11.16072	86459
11.16885	88566
11.17697	85186
11.18508	86249
11.19322	83276
11.20133	84421
11.20945	84767
11.21758	80742
11.22570	73470
11.23383	76165
11.24195	64652
11.25007	64677
11.25820	62037
11.26632	59831
11.27445	62152
11.28257	65658
11.29068	73022
11.29882	110177
11.30693	211867
11.31507	484226
11.32318	1048049
11.33130	2020320
11.33943	3091208
11.34755	3913113
11.35567	4007168
11.36380	3447311
11.37192	2515561
11.38005	1703324
11.38817	1103117
11.39628	815636
11.40442	696544
11.41253	613458
11.42067	581624
11.42878	529533
11.43690	470288
11.44503	415058
11.45315	349950
11.46128	319121
11.46940	285249
11.47752	271386
11.48565	288746
11.49377	320803
11.50188	350396
11.51002	377549
11.51813	358429
11.52627	310715
11.53438	273176
11.54250	225494
11.55063	204443
11.55875	194971
11.56688	193626
11.57500	196159
11.58312	189070
11.59125	175146
11.59937	173199
11.60748	191774
11.61562	211157
11.62373	231722
11.63187	247108
11.63998	226273
11.64810	184041
11.65623	158426
11.66435	136100
11.67248	121481
11.68060	120431
11.68872	129772
11.69685	141274
11.70497	146290
11.71310	142930
11.72122	140204
11.72933	119171
11.73747	116952
11.74558	101768
11.75370	98265
11.76183	94924
11.76995	88566
11.77808	86490
11.78620	84285
11.79432	85424
11.80245	82961
11.81057	79053
11.81870	76164
11.82682	74215
11.83493	78422
11.84307	83562
11.85118	83683
11.85930	99239
11.86743	103707
11.87555	103159
11.88368	102042
11.89180	87301
11.89992	76595
11.90805	76799
11.91617	72972
11.92430	71957
11.93242	73912
11.94053	72910
11.94867	73696
11.95678	62446
11.96492	66337
11.97303	63665
11.98115	64120
11.98928	62126
11.99740	72138
12.00552	80242
12.01365	95443
12.02177	100381
12.02990	99011
12.03802	92722
12.04613	77869
12.05427	70735
12.06238	67514
12.07052	68687
12.07863	76969
12.08675	99396
12.09488	135916
12.10300	210292
12.11113	414425
12.11925	740940
12.12737	1157156
12.13550	1617015
12.14362	1791596
12.15173	1618528
12.15987	1277999
12.16798	833994
12.17612	486320
12.18423	318293
12.19235	244938
12.20048	231633
12.20860	240680
12.21673	233028
12.22485	215785
12.23297	195593
12.24110	187381
12.24922	179477
12.25735	166655
12.26547	164701
12.27358	151584
12.28172	155433
12.28983	138279
12.29795	135990
12.30608	119886
12.31420	118126
12.32233	107777
12.33045	106969
12.33857	105150
12.34670	102165
12.35482	105973
12.36295	102982
12.37107	112652
12.37918	96042
12.38732	105576
12.39543	105432
12.40355	104711
12.41168	128439
12.41980	147593
12.42793	175005
12.43605	182804
12.44417	191319
12.45230	168535
12.46042	147105
12.46855	132590
12.47667	121161
12.48478	120435
12.49292	116323
12.50103	114971
12.50917	100429
12.51728	102885
12.52540	101912
12.53353	105000
12.54165	110104
12.54977	121716
12.55790	136535
12.56602	136133
12.57415	134572
12.58227	126628
12.59038	124026
12.59852	115418
12.60663	107043
12.61477	95704
12.62288	95451
12.63100	96964
12.63913	89499
12.64725	92943
12.65537	86537
12.66350	81166
12.67162	76989
12.67975	78188
12.68787	79284
12.69598	72015
12.70412	72694
12.71223	76249
12.72037	76783
12.72848	88328
12.73660	83457
12.74473	89778
12.75285	87459
12.76098	84110
12.76910	78742
12.77722	72512
12.78535	70665
12.79347	70214
12.80158	63957
12.80972	61935
12.81783	59427
12.82597	62539
12.83408	52997
12.84220	49045
12.85033	50452
12.85845	51389
12.86658	47426
12.87470	52216
12.88282	50946
12.89095	52702
12.89907	56039
12.90720	54553
12.91532	55538
12.92343	51312
12.93157	47813
12.93968	48710
12.94780	55226
12.95593	49700
12.96405	52438
12.97218	51259
12.98030	53585
12.98842	57770
12.99655	57587
13.00467	61328
13.01280	57565
13.02092	52061
13.02903	53439
13.03717	51423
13.04528	54883
13.05340	55103
13.06153	55558
13.06965	51891
13.07778	46457
13.08590	52803
13.09402	49185
13.10215	50640
13.11027	48873
13.11840	48940
13.12652	48223
13.13463	50930
13.14277	45273
13.15088	48934
13.15902	48930
13.16713	47633
13.17525	49846
13.18338	53750
13.19150	55295
13.19962	63223
13.20775	59072
13.21587	66743
13.22400	65046
13.23212	66514
13.24023	62140
13.24837	60775
13.25648	61613
13.26462	56111
13.27273	55536
13.28085	53169
13.28898	48945
13.29710	53650
13.30523	49930
13.31335	47895
13.32147	54638
13.32960	47889
13.33772	49697
13.34583	52353
13.35397	52120
13.36208	46134
13.37022	48735
13.37833	47593
13.38645	46549
13.39458	48087
13.40270	46247
13.41083	43068
13.41895	46866
13.42707	45724
13.43520	45795
13.44332	54379
13.45143	47542
13.45957	49841
13.46768	56153
13.47582	59081
13.48393	58320
13.49205	56076
13.50018	51509
13.50830	52020
13.51643	52308
13.52455	49321
13.53267	52580
13.54080	50458
13.54892	51522
13.55705	51495
13.56517	60114
13.57328	62499
13.58142	68746
13.58953	69674
13.59765	75336
13.60578	76937
13.61390	72150
13.62203	78292
13.63015	72493
13.63827	73727
13.64640	65328
13.65452	59028
13.66265	58354
13.67077	49834
13.67888	46542
13.68702	45738
13.69513	44735
13.70325	47505
13.71138	48942
13.71950	44169
13.72763	52575
13.73575	55769
13.74387	56876
13.75200	62851
13.76012	79993
13.76825	107858
13.77637	140848
13.78448	190463
13.79262	228870
13.80073	253365
13.80887	291133
13.81698	349542
13.82510	439735
13.83323	521812
13.84135	591198
13.84947	615937
13.85760	564315
13.86572	457440
13.87385	355408
13.88197	276607
13.89008	214551
13.89822	168651
13.90633	139723
13.91447	114850
13.92258	98728
13.93070	91070
13.93883	82195
13.94695	79965
13.95508	84206
13.96320	91083
13.97132	114692
13.97945	153039
13.98757	185640
13.99568	194176
14.00382	177534
14.01193	149739
14.02007	128088
14.02818	100780
14.03630	87104
14.04443	84131
14.05255	82237
14.06068	76747
14.06880	72439
14.07692	78140
14.08505	71837
14.09317	68548
14.10128	76813
14.10942	68675
14.11753	63177
14.12567	60079
14.13378	60118
14.14190	67393
14.15003	78124
14.15815	89541
14.16628	97092
14.17440	99496
14.18252	103071
14.19065	104708
14.19877	108648
14.20690	128235
14.21502	150422
14.22313	176387
14.23127	196541
14.23938	193739
14.24750	195989
14.25563	185220
14.26375	184960
14.27188	174557
14.28000	158821
14.28812	135167
14.29625	119745
14.30437	97701
14.31250	95651
14.32062	92735
14.32873	86029
14.33687	81178
14.34498	83732
14.35312	75901
14.36123	75095
14.36935	78495
14.37748	70385
14.38560	66773
14.39372	70886
14.40185	71308
14.40997	74133
14.41810	77849
14.42622	83001
14.43433	86216
14.44247	82123
14.45058	82220
14.45872	70406
14.46683	73751
14.47495	80133
14.48308	84641
14.49120	90986
14.49932	80612
14.50745	87873
14.51557	75768
14.52370	72605
14.53182	75384
14.53993	73452
14.54807	70160
14.55618	65363
14.56432	59376
14.57243	59815
14.58055	53092
14.58868	52292
14.59680	49887
14.60493	50418
14.61305	47203
14.62117	49484
14.62930	48666
14.63742	46931
14.64553	41814
14.65367	42718
14.66178	42704
14.66992	46576
14.67803	49205
14.68615	45876
14.69428	41870
14.70240	44210
14.71053	47770
14.71865	45509
14.72677	48303
14.73490	51722
14.74302	49581
14.75113	58320
14.75927	59199
14.76738	58943
14.77552	60293
14.78363	62359
14.79175	87105
14.79988	166668
14.80800	417073
14.81613	1066734
14.82425	2285563
14.83237	3900604
14.84050	5099832
14.84862	5551309
14.85675	4784145
14.86487	3392709
14.87298	2049824
14.88112	1236789
14.88923	801151
14.89735	573434
14.90548	464588
14.91360	387159
14.92173	349950
14.92985	330545
14.93797	302569
14.94610	285388
14.95422	260669
14.96235	238267
14.97047	221355
14.97858	214587
14.98672	202836
14.99483	190637
15.00297	179261
15.01108	168427
15.01920	168183
15.02733	161288
15.03545	163199
15.04357	150009
15.05170	147205
15.05982	139460
15.06795	137388
15.07607	125959
15.08418	121914
15.09232	113618
15.10043	116487
15.10857	116652
15.11668	105958
15.12480	111453
15.13293	111072
15.14105	115853
15.14917	119053
15.15730	137949
15.16542	116400
15.17355	99459
15.18167	92994
15.18978	81441
15.19792	70088
15.20603	76928
15.21417	69876
15.22228	68955
15.23040	67620
15.23853	69761
15.24665	67171
15.25478	66172
15.26290	65045
15.27102	61016
15.27915	63049
15.28727	53907
15.29538	56592
15.30352	56691
15.31163	55414
15.31977	51138
15.32788	55469
15.33600	52364
15.34413	55528
15.35225	47952
15.36038	54188
15.36850	54200
15.37662	52243
15.38475	52256
15.39287	52975
15.40100	52095
15.40912	59421
15.41723	53000
15.42537	51563
15.43348	53560
15.44160	56770
15.44973	55185
15.45785	62913
15.46598	80402
15.47410	114819
15.48222	185444
15.49035	300134
15.49847	406951
15.50660	529990
15.51472	603658
15.52283	561240
15.53097	509708
15.53908	451024
15.54720	399711
15.55533	353437
15.56345	317836
15.57158	266936
15.57970	206639
15.58782	158155
15.59595	132382
15.60407	119870
15.61220	104116
15.62032	99834
15.62843	90501
15.63657	88103
15.64468	83719
15.65282	84129
15.66093	72121
15.66905	70763
15.67718	74077
15.68530	62846
15.69342	70880
15.70155	63884
15.70967	63930
15.71780	60338
15.72592	59794
15.73403	61313
15.74217	59533
15.75028	62444
15.75842	69090
15.76653	97192
15.77465	145348
15.78278	220184
15.79090	302013
15.79903	369348
15.80715	355763
15.81527	307483
15.82340	231789
15.83152	170379
15.83963	123709
15.84777	102903
15.85588	92465
15.86402	87040
15.87213	89799
15.88025	83995
15.88838	82254
15.89650	86718
15.90463	85970
15.91275	82791
15.92087	80063
15.92900	83118
15.93712	73563
15.94523	71394
15.95337	69116
15.96148	72181
15.96962	83101
15.97773	86895
15.98585	92708
15.99398	101198
16.00210	101284
16.01023	102292
16.01835	105808
16.02647	100126
16.03460	102455
16.04272	100805
16.05085	93785
16.05897	84542
16.06708	73710
16.07522	69477
16.08333	66410
16.09145	64245
16.09958	66617
16.10770	64960
16.11583	67969
16.12395	68521
16.13207	66770
16.14020	75425
16.14832	79787
16.15645	82140
16.16457	87465
16.17268	77080
16.18082	74861
16.18893	69569
16.19705	62635
16.20518	65080
16.21330	62092
16.22143	66345
16.22955	60252
16.23767	58394
16.24580	60652
16.25392	61035
16.26205	57299
16.27017	61495
16.27828	62883
16.28642	63115
16.29453	70502
16.30267	80815
16.31078	80467
16.31890	85392
16.32703	83978
16.33515	79470
16.34327	76504
16.35140	72255
16.35952	77016
16.36765	88545
16.37577	103049
16.38388	117780
16.39202	118712
16.40013	112786
16.40827	94928
16.41638	83705
16.42450	71590
16.43263	67209
16.44075	62994
16.44888	85256
16.45700	129771
16.46512	227178
16.47325	443370
16.48137	725955
16.48948	985109
16.49762	1105819
16.50573	949294
16.51387	728337
16.52198	459148
16.53010	287791
16.53823	194431
16.54635	154683
16.55448	135842
16.56260	116874
16.57072	111428
16.57885	111507
16.58697	110288
16.59508	106859
16.60322	103029
16.61133	113181
16.61947	109244
16.62758	111045
16.63570	110510
16.64383	99082
16.65195	92984
16.66008	86991
16.66820	80859
16.67632	72467
16.68445	74944
16.69257	69730
16.70070	69517
16.70882	68163
16.71693	62561
16.72507	62470
16.73318	60200
16.74130	62417
16.74943	61290
16.75755	61812
16.76568	69907
16.77380	70463
16.78192	70240
16.79005	67122
16.79817	65728
16.80630	63234
16.81442	56112
16.82253	53224
16.83067	53916
16.83878	54747
16.84692	52800
16.85503	52438
16.86315	50268
16.87128	50928
16.87940	52132
16.88752	50856
16.89565	48101
16.90377	48805
16.91190	48734
16.92002	49748
16.92813	49306
16.93627	45829
16.94438	52319
16.95252	50102
16.96063	48496
16.96875	45670
16.97688	46527
16.98500	44813
16.99312	51078
17.00125	50123
17.00937	50762
17.01750	55461
17.02562	56646
17.03373	51052
17.04187	55950
17.04998	58312
17.05812	61158
17.06623	59222
17.07435	61609
17.08248	60369
17.09060	53914
17.09873	55566
17.10685	57049
17.11497	56058
17.12310	55139
17.13122	63689
17.13933	62637
17.14747	64656
17.15558	61643
17.16372	63062
17.17183	61230
17.17995	55877
17.18808	53870
17.19620	51747
17.20433	53987
17.21245	49532
17.22057	46511
17.22870	49683
17.23682	49542
17.24493	47844
17.25307	48464
17.26118	49608
17.26932	54386
17.27743	53079
17.28555	50690
17.29368	50899
17.30180	47917
17.30993	47082
17.31805	49618
17.32617	63413
17.33430	62296
17.34242	69083
17.35055	80877
17.35867	81319
17.36678	85095
17.37492	81386
17.38303	79584
17.39115	76792
17.39928	77012
17.40740	80933
17.41553	82774
17.42365	83050
17.43177	87397
17.43990	79464
17.44802	83896
17.45615	77788
17.46427	72399
17.47238	67999
17.48052	63751
17.48863	55814
17.49677	59616
17.50488	57161
17.51300	52961
17.52113	52075
17.52925	51033
17.53737	50792
17.54550	53017
17.55362	55461
17.56175	64315
17.56987	84315
17.57798	121480
17.58612	183380
17.59423	294835
17.60237	433221
17.61048	571063
17.61860	658569
17.62673	646384
17.63485	536553
17.64298	428306
17.65110	339416
17.65922	314355
17.66735	325642
17.67547	334896
17.68358	322610
17.69172	295045
17.69983	246892
17.70797	198299
17.71608	164934
17.72420	144406
17.73233	134317
17.74045	123985
17.74858	121161
17.75670	113681
17.76482	111776
17.77295	106258
17.78107	98239
17.78918	87689
17.79732	88888
17.80543	84587
17.81357	88071
17.82168	91998
17.82980	97486
17.83793	107912
17.84605	114660
17.85418	119424
17.86230	123294
17.87042	132472
17.87855	129725
17.88667	122752
17.89480	111675
17.90292	93693
17.91103	80090
17.91917	77488
17.92728	66414
17.93540	69497
17.94353	71956
17.95165	67464
17.95978	64148
17.96790	60294
17.97602	64954
17.98415	53984
17.99227	59056
18.00040	59300
18.00852	57252
18.01663	66134
18.02477	71024
18.03288	90458
18.04100	107721
18.04913	126418
18.05725	148131
18.06538	201158
18.07350	346445
18.08162	644161
18.08975	1105552
18.09787	1596329
18.10600	1878793
18.11412	1750475
18.12223	1421045
18.13037	1057585
18.13848	756443
18.14662	598509
18.15473	471382
18.16285	398829
18.17098	341763
18.17910	299979
18.18722	275827
18.19535	256930
18.20347	230974
18.21160	206415
18.21972	187426
18.22783	182294
18.23597	164289
18.24408	158940
18.25222	145624
18.26033	132709
18.26845	124327
18.27658	123093
18.28470	107962
18.29283	100215
18.30095	86192
18.30907	77463
18.31720	72319
18.32532	63653
18.33343	62553
18.34157	60865
18.34968	64467
18.35782	60116
18.36593	59414
18.37405	60477
18.38218	64685
18.39030	61416
18.39843	56810
18.40655	68604
18.41467	74738
18.42280	82792
18.43092	96267
18.43903	121919
18.44717	149093
18.45528	167846
18.46342	181537
18.47153	214264
18.47965	239435
18.48778	266643
18.49590	263224
18.50403	253960
18.51215	214789
18.52027	160041
18.52840	131511
18.53652	108741
18.54465	94624
18.55277	83883
18.56088	73985
18.56902	72080
18.57713	70700
18.58525	66009
18.59338	71458
18.60150	72393
18.60963	86761
18.61775	91044
18.62587	102067
18.63400	100329
18.64212	104442
18.65025	105779
18.65837	100093
18.66648	88915
18.67462	77686
18.68273	73783
18.69087	64999
18.69898	65187
18.70710	69910
18.71523	69339
18.72335	62528
18.73147	63003
18.73960	62937
18.74772	58628
18.75585	57443
18.76397	56449
18.77208	56102
18.78022	55347
18.78833	53008
18.79647	54203
18.80458	53409
18.81270	51398
18.82083	56226
18.82895	52846
18.83707	54584
18.84520	49713
18.85332	51366
18.86145	56555
18.86957	62364
18.87768	80178
18.88582	82983
18.89393	82541
18.90207	84668
18.91018	77411
18.91830	68581
18.92643	68806
18.93455	66504
18.94268	65571
18.95080	69076
18.95892	72486
18.96705	67842
18.97517	71942
18.98328	71996
18.99142	63011
18.99953	63833
19.00767	61312
19.01578	54564
19.02390	56486
19.03203	55247
19.04015	54465
19.04828	53397
19.05640	54433
19.06452	51993
19.07265	52384
19.08077	54461
19.08888	61064
19.09702	84980
19.10513	102232
19.11327	117878
19.12138	130568
19.12950	130123
19.13763	126482
19.14575	116199
19.15388	103274
19.16200	94653
19.17012	95654
19.17825	95903
19.18637	100396
19.19450	104009
19.20262	96562
19.21073	92873
19.21887	97656
19.22698	108105
19.23510	113350
19.24323	125640
19.25135	127595
19.25948	128459
19.26760	134399
19.27572	147273
19.28385	146215
19.29197	159050
19.30010	164870
19.30822	176995
19.31633	170428
19.32447	168296
19.33258	160525
19.34072	169543
19.34883	160147
19.35695	168079
19.36508	181285
19.37320	190833
19.38132	212862
19.38945	223251
19.39757	210973
19.40570	210982
19.41382	186703
19.42193	169325
19.43007	170228
19.43818	156145
19.44632	152755
19.45443	152221
19.46255	149950
19.47068	142780
19.47880	147597
19.48692	147431
19.49505	151039
19.50317	160536
19.51130	181301
19.51942	208949
19.52753	232671
19.53567	244253
19.54378	234836
19.55192	231651
19.56003	196912
19.56815	185455
19.57628	183036
19.58440	157818
19.59253	151524
19.60065	142627
19.60877	139729
19.61690	138655
19.62502	137328
19.63313	149204
19.64127	177032
19.64938	238355
19.65752	342751
19.66563	526023
19.67375	719119
19.68188	854182
19.69000	893769
19.69813	835748
19.70625	690615
19.71437	551800
19.72250	425472
19.73062	358721
19.73875	301409
19.74687	268901
19.75498	234625
19.76312	211373
19.77123	203005
19.77935	207861
19.78748	231202
19.79560	250408
19.80373	278277
19.81185	281541
19.81997	286611
19.82810	267786
19.83622	239824
19.84435	237367
19.85247	328601
19.86058	703282
19.86872	1963561
19.87683	4936907
19.88495	1.07028E+07
19.89308	1.900802E+07
19.90120	2.792712E+07
19.90933	3.455868E+07
19.91745	3.647399E+07
19.92557	3.387904E+07
19.93370	2.648929E+07
19.94182	1.834157E+07
19.94995	1.202702E+07
19.95807	7982082
19.96618	5778004
19.97432	4535715
19.98243	3854549
19.99057	3481031
19.99868	3243938
20.00680	2929660
20.01493	2707757
20.02305	2477372
20.03117	2272997
20.03930	2070761
20.04742	1839881
20.05555	1623395
20.06367	1342465
20.07178	1100859
20.07992	920175
20.08803	825177
20.09617	742169
20.10428	716197
20.11240	635743
20.12053	579682
20.12865	535681
20.13678	497064
20.14490	491231
20.15302	554395
20.16115	722549
20.16927	1063130
20.17738	1519540
20.18552	2099236
20.19363	2673039
20.20177	2980769
20.20988	3080641
20.21800	2840199
20.22613	2458751
20.23425	1993178
20.24238	1693881
20.25050	1519417
20.25862	1593411
20.26675	1766431
20.27487	2035699
20.28298	2250663
20.29112	2344528
20.29923	2176748
20.30737	1910962
20.31548	1499100
20.32360	1173434
20.33173	854149
20.33985	633319
20.34798	477373
20.35610	376105
20.36422	304864
20.37235	262615
20.38047	223189
20.38860	193100
20.39672	182079
20.40483	168763
20.41297	165716
20.42108	165550
20.42920	169193
20.43733	178218
20.44545	192938
20.45358	210324
20.46170	226611
20.46982	225353
20.47795	214675
20.48607	191324
20.49420	177881
20.50232	154943
20.51043	152339
20.51857	137266
20.52668	127122
20.53480	120709
20.54293	121866
20.55105	122656
20.55918	119984
20.56730	122847
20.57542	116302
20.58355	114788
20.59167	110960
20.59980	114260
20.60792	112942
20.61603	106940
20.62417	104788
20.63228	110362
20.64042	112203
20.64853	117823
20.65665	119099
20.66478	125323
20.67290	122681
20.68102	116418
20.68915	105301
20.69727	105897
20.70540	102400
20.71352	95389
20.72163	98860
20.72977	95964
20.73788	97187
20.74602	96187
20.75413	97165
20.76225	102041
20.77038	106199
20.77850	109169
20.78663	125839
20.79475	162636
20.80287	239838
20.81100	356453
20.81912	495496
20.82723	610424
20.83537	632465
20.84348	566515
20.85162	422396
20.85973	308100
20.86785	215539
20.87598	154465
20.88410	145039
20.89223	133204
20.90035	125343
20.90847	137789
20.91660	144684
20.92472	155949
20.93283	184186
20.94097	188267
20.94908	201658
20.95722	196013
20.96533	175471
20.97345	160919
20.98158	149307
20.98970	126070
20.99783	114581
21.00595	108670
21.01407	102328
21.02220	103290
21.03032	102396
21.03845	102461
21.04657	105986
21.05468	107003
21.06282	101255
21.07093	101352
21.07905	100221
21.08718	94731
21.09530	84514
21.10343	83360
21.11155	87730
21.11967	87460
21.12780	91709
21.13592	102448
21.14405	121076
21.15217	150905
21.16028	193844
21.16842	231901
21.17653	250923
21.18467	235909
21.19278	202773
21.20090	162827
21.20903	137099
21.21715	113457
21.22527	107078
21.23340	102853
21.24152	99470
21.24965	96525
21.25777	88773
21.26588	90146
21.27402	88115
21.28213	89710
21.29027	85662
21.29838	86503
21.30650	85815
21.31463	85316
21.32275	83307
21.33087	74728
21.33900	82820
21.34712	79299
21.35525	80060
21.36337	78377
21.37148	80210
21.37962	84068
21.38773	89311
21.39587	94961
21.40398	124515
21.41210	136268
21.42023	162383
21.42835	173979
21.43648	194265
21.44460	188654
21.45272	164000
21.46085	150439
21.46897	126802
21.47708	108770
21.48522	101668
21.49333	91743
21.50147	85719
21.50958	88818
21.51770	84461
21.52583	87681
21.53395	82883
21.54208	82333
21.55020	81307
21.55832	77057
21.56645	79297
21.57457	80358
21.58268	84294
21.59082	95964
21.59893	92397
21.60707	94807
21.61518	94957
21.62330	100038
21.63143	99255
21.63955	119217
21.64768	123551
21.65580	140634
21.66392	157168
21.67205	145520
21.68017	146227
21.68830	151556
21.69642	133350
21.70453	125135
21.71267	109842
21.72078	96857
21.72890	93909
21.73703	92857
21.74515	77892
21.75328	78061
21.76140	78602
21.76952	79477
21.77765	75557
21.78577	79456
21.79390	82665
21.80202	81452
21.81013	77630
21.81827	86256
21.82638	88666
21.83452	102227
21.84263	109081
21.85075	132973
21.85888	144421
21.86700	141221
21.87512	133584
21.88325	127807
21.89137	112589
21.89950	98627
21.90762	90563
21.91573	83124
21.92387	80236
21.93198	76979
21.94012	73894
21.94823	73103
21.95635	66960
21.96448	65236
21.97260	61896
21.98072	62684
21.98885	61869
21.99697	57885
22.00510	58654
22.01322	58559
22.02133	62361
22.02947	63516
22.03758	60523
22.04572	61749
22.05383	65838
22.06195	63899
22.07008	64931
22.07820	64440
22.08633	65026
22.09445	68613
22.10257	70163
22.11070	67490
22.11882	66932
22.12693	59650
22.13507	63834
22.14318	66034
22.15132	61983
22.15943	59958
22.16755	56956
22.17568	60227
22.18380	60148
22.19193	59255
22.20005	59467
22.20817	53284
22.21630	56302
22.22442	58214
22.23255	63098
22.24067	68990
22.24878	74383
22.25692	66682
22.26503	72664
22.27315	70181
22.28128	74720
22.28940	71589
22.29753	78558
22.30565	84556
22.31377	104536
22.32190	119442
22.33002	147491
22.33815	169890
22.34627	187489
22.35438	182381
22.36252	163855
22.37063	149776
22.37875	120676
22.38688	100928
22.39500	102239
22.40313	114089
22.41125	135986
22.41937	163368
22.42750	183699
22.43562	197306
22.44375	182815
22.45187	158700
22.45998	133565
22.46812	111666
22.47623	97105
22.48437	88942
22.49248	98266
22.50060	100682
22.50873	110731
22.51685	120259
22.52497	137616
22.53310	130903
22.54122	119125
22.54935	108373
22.55747	106544
22.56558	89753
22.57372	82502
22.58183	76677
22.58997	71402
22.59808	71795
22.60620	68244
22.61433	62731
22.62245	62168
22.63058	69063
22.63870	75394
22.64682	75925
22.65495	76286
22.66307	88412
22.67118	98738
22.67932	99747
22.68743	110645
22.69557	130520
22.70368	136568
22.71180	144975
22.71993	144350
22.72805	148265
22.73618	133734
22.74430	129391
22.75242	123253
22.76055	117892
22.76867	104402
22.77678	101932
22.78492	104185
22.79303	122471
22.80117	124664
22.80928	138816
22.81740	138321
22.82553	139222
22.83365	131782
22.84178	124143
22.84990	119432
22.85802	118199
22.86615	121692
22.87427	146757
22.88240	166097
22.89052	189106
22.89863	215844
22.90677	229864
22.91488	232822
22.92300	240508
22.93113	238866
22.93925	242050
22.94738	232617
22.95550	222568
22.96362	206124
22.97175	185428
22.97987	173843
22.98800	152516
22.99612	138252
23.00423	130553
23.01237	122477
23.02048	118421
23.02862	106199
23.03673	106979
23.04485	100703
23.05298	106179
23.06110	93136
23.06922	95571
23.07735	93482
23.08547	91616
23.09360	89569
23.10172	81718
23.10983	77814
23.11797	83112
23.12608	75420
23.13422	72521
23.14233	72380
23.15045	70393
23.15858	61041
23.16670	65771
23.17482	66088
23.18295	60613
23.19107	66929
23.19920	60933
23.20732	59440
23.21543	58164
23.22357	62857
23.23168	63245
23.23982	65136
23.24793	77871
23.25605	83111
23.26418	98424
23.27230	100898
23.28043	105541
23.28855	99252
23.29667	92574
23.30480	81038
23.31292	75262
23.32103	70253
23.32917	79371
23.33728	96187
23.34542	124878
23.35353	149575
23.36165	178199
23.36978	211580
23.37790	220749
23.38603	233565
23.39415	227205
23.40227	223192
23.41040	204175
23.41852	199587
23.42663	188390
23.43477	182502
23.44288	174806
23.45102	175595
23.45913	166269
23.46725	170312
23.47538	172609
23.48350	158497
23.49163	153600
23.49975	146134
23.50787	143804
23.51600	144484
23.52412	139777
23.53225	139271
23.54037	140677
23.54848	141600
23.55662	154624
23.56473	164588
23.57285	178397
23.58098	207943
23.58910	243580
23.59723	305035
23.60535	347476
23.61347	383613
23.62160	372235
23.62972	343494
23.63785	330485
23.64597	367219
23.65408	450662
23.66222	594816
23.67033	713685
23.67847	776475
23.68658	769397
23.69470	652909
23.70283	494871
23.71095	357074
23.71907	254734
23.72720	202343
23.73532	166073
23.74345	161878
23.75157	178393
23.75968	281315
23.76782	553920
23.77593	1188070
23.78407	2317254
23.79218	3543412
23.80030	4577194
23.80843	4696467
23.81655	4331575
23.82467	3662430
23.83280	2680910
23.84092	1879730
23.84905	1339763
23.85717	1023669
23.86528	828730
23.87342	672041
23.88153	590874
23.88967	507218
23.89778	446796
23.90590	427357
23.91403	405371
23.92215	390257
23.93028	373584
23.93840	342317
23.94652	330382
23.95465	309242
23.96277	278748
23.97088	258828
23.97902	257412
23.98713	251491
23.99527	235543
24.00338	223439
24.01150	218206
24.01963	217984
24.02775	212405
24.03588	233522
24.04400	235512
24.05212	248694
24.06025	243117
24.06837	236249
24.07650	230192
24.08462	203841
24.09273	196224
24.10087	187874
24.10898	184737
24.11710	166466
24.12523	167469
24.13335	165607
24.14148	182073
24.14960	181964
24.15772	198707
24.16585	202441
24.17397	209791
24.18210	203739
24.19022	197401
24.19833	191681
24.20647	186791
24.21458	193808
24.22270	186789
24.23083	173373
24.23895	182607
24.24708	159473
24.25520	152165
24.26332	138167
24.27145	141989
24.27957	128775
24.28770	123494
24.29582	120361
24.30393	129094
24.31207	123680
24.32018	125218
24.32832	130795
24.33643	133910
24.34455	128305
24.35268	121106
24.36080	116549
24.36892	117406
24.37705	113183
24.38517	115327
24.39330	112481
24.40142	127359
24.40953	137957
24.41767	145860
24.42578	149205
24.43392	150921
24.44203	130984
24.45015	119550
24.45828	114623
24.46640	120030
24.47452	122930
24.48265	125512
24.49077	134270
24.49890	136052
24.50702	147164
24.51513	154658
24.52327	171491
24.53138	197572
24.53952	232488
24.54763	278385
24.55575	310880
24.56388	332539
24.57200	315520
24.58013	280945
24.58825	245249
24.59637	208626
24.60450	172743
24.61262	147843
24.62073	141651
24.62887	131339
24.63698	123759
24.64512	121089
24.65323	113977
24.66135	114961
24.66948	115319
24.67760	105674
24.68573	104045
24.69385	108468
24.70197	101846
24.71010	94427
24.71822	95461
24.72635	92092
24.73447	88141
24.74258	91277
24.75072	85836
24.75883	85631
24.76695	89296
24.77508	92999
24.78320	88337
24.79133	90788
24.79945	95445
24.80757	92848
24.81570	91544
24.82382	95969
24.83195	106933
24.84007	106897
24.84818	129817
24.85632	145606
24.86443	190032
24.87255	244283
24.88068	335816
24.88880	439755
24.89693	525524
24.90505	579919
24.91317	550385
24.92130	457223
24.92942	357906
24.93755	246868
24.94567	188192
24.95378	140285
24.96192	108557
24.97003	99313
24.97817	92786
24.98628	89112
24.99440	83724
25.00253	85014
25.01065	84325
25.01877	78444
25.02690	74612
25.03502	73176
25.04315	73811
25.05127	84894
25.05938	80317
25.06752	89414
25.07563	114002
25.08377	122298
25.09188	139138
25.10000	155177
25.10813	208515
25.11625	329478
25.12438	627348
25.13250	1194656
25.14062	2019684
25.14875	2794351
25.15687	3417220
25.16498	3396011
25.17312	2839717
25.18123	2160769
25.18937	1433928
25.19748	916978
25.20560	573100
25.21373	406249
25.22185	312632
25.22998	254571
25.23810	244247
25.24622	250587
25.25435	275664
25.26247	299450
25.27058	324878
25.27872	355227
25.28683	349808
25.29497	327669
25.30308	296785
25.31120	280314
25.31933	246812
25.32745	221799
25.33558	215189
25.34370	202292
25.35182	200391
25.35995	193299
25.36807	187023
25.37620	185264
25.38432	181940
25.39243	187908
25.40057	171484
25.40868	170640
25.41680	175032
25.42493	166013
25.43305	164987
25.44118	162121
25.44930	167077
25.45742	161758
25.46555	165867
25.47367	167548
25.48180	166029
25.48992	173803
25.49803	163004
25.50617	161018
25.51428	174232
25.52242	166693
25.53053	153525
25.53865	151556
25.54678	143497
25.55490	140388
25.56302	142531
25.57115	139667
25.57927	134488
25.58740	133569
25.59552	141928
25.60363	134167
25.61177	132838
25.61988	138709
25.62802	138099
25.63613	131705
25.64425	140888
25.65238	131129
25.66050	128320
25.66862	127122
25.67675	120168
25.68487	112067
25.69300	112894
25.70112	106252
25.70923	106220
25.71737	103114
25.72548	97983
25.73362	90298
25.74173	93243
25.74985	91363
25.75798	89891
25.76610	86061
25.77423	83091
25.78235	79950
25.79047	83816
25.79860	79903
25.80672	77991
25.81483	79796
25.82297	86204
25.83108	83977
25.83922	86758
25.84733	92969
25.85545	86617
25.86358	97560
25.87170	86013
25.87983	81075
25.88795	81538
25.89607	74854
25.90420	74104
25.91232	72415
25.92043	81413
25.92857	73655
25.93668	73795
25.94482	70049
25.95293	75269
25.96105	75600
25.96918	71864
25.97730	70872
25.98543	67129
25.99355	68072
26.00167	62643
26.00980	63320
26.01792	66211
26.02605	70071
26.03417	72912
26.04228	91099
26.05042	121775
26.05853	148264
26.06665	177642
26.07478	194868
26.08290	208889
26.09103	204998
26.09915	217551
26.10727	204660
26.11540	216991
26.12352	211950
26.13165	218394
26.13977	217042
26.14788	234111
26.15602	232514
26.16413	237354
26.17227	236737
26.18038	234727
26.18850	232593
26.19663	228557
26.20475	218648
26.21287	214483
26.22100	216034
26.22912	215212
26.23725	208335
26.24537	202395
26.25348	200873
26.26162	202333
26.26973	206338
26.27787	191360
26.28598	193670
26.29410	197781
26.30223	189969
26.31035	185670
26.31847	180881
26.32660	180434
26.33472	185457
26.34285	193256
26.35097	213313
26.35908	256149
26.36722	323202
26.37533	469500
26.38347	651858
26.39158	922393
26.39970	1130723
26.40783	1312930
26.41595	1271757
26.42408	1102139
26.43220	882257
26.44032	684212
26.44845	492214
26.45657	360990
26.46468	289113
26.47282	239040
26.48093	216419
26.48907	198366
26.49718	191241
26.50530	192197
26.51343	170558
26.52155	170586
26.52968	172328
26.53780	162974
26.54592	151887
26.55405	158997
26.56217	146892
26.57030	149949
26.57842	145842
26.58653	143515
26.59467	139866
26.60278	149338
26.61090	149492
26.61903	146030
26.62715	147984
26.63528	138559
26.64340	135256
26.65152	140319
26.65965	137371
26.66777	145788
26.67590	146549
26.68402	149577
26.69213	150052
26.70027	140530
26.70838	143698
26.71650	138084
26.72463	132326
26.73275	129038
26.74088	127040
26.74900	134900
26.75712	131980
26.76525	127795
26.77337	120619
26.78150	131803
26.78962	128243
26.79773	127912
26.80587	132053
26.81398	133956
26.82212	134714
26.83023	132817
26.83835	121856
26.84648	123007
26.85460	123136
26.86272	123186
26.87085	119176
26.87897	116491
26.88710	117995
26.89522	112246
26.90333	113379
26.91147	113293
26.91958	104164
26.92772	104289
26.93583	104344
26.94395	108851
26.95208	110117
26.96020	117782
26.96832	119638
26.97645	146329
26.98457	207639
26.99270	338196
27.00082	601695
27.00893	980951
27.01707	1532158
27.02518	2067156
27.03332	2327216
27.04143	2345550
27.04955	2051183
27.05768	1650370
27.06580	1254673
27.07393	904971
27.08205	710048
27.09017	551149
27.09830	464395
27.10642	404026
27.11453	352481
27.12267	316050
27.13078	292241
27.13892	266028
27.14703	253812
27.15515	244890
27.16328	238287
27.17140	240808
27.17953	240279
27.18765	246362
27.19577	261640
27.20390	252582
27.21202	236241
27.22015	213647
27.22827	196814
27.23638	185535
27.24452	162458
27.25263	169006
27.26075	145927
27.26888	143500
27.27700	142060
27.28513	134396
27.29325	133692
27.30137	129768
27.30950	131194
27.31762	132568
27.32575	132392
27.33387	129939
27.34198	129544
27.35012	128338
27.35823	126364
27.36637	124976
27.37448	127463
27.38260	116075
27.39073	120984
27.39885	120010
27.40697	115351
27.41510	112071
27.42322	113270
27.43135	111013
27.43947	116440
27.44758	112305
27.45572	109072
27.46383	103143
27.47197	97373
27.48008	96827
27.48820	95137
27.49633	91746
27.50445	100456
27.51257	99252
27.52070	93500
27.52882	99805
27.53695	94763
27.54507	96303
27.55318	98601
27.56132	101248
27.56943	97614
27.57757	98493
27.58568	105850
27.59380	114379
27.60193	130563
27.61005	127337
27.61818	134218
27.62630	125068
27.63442	119016
27.64255	114162
27.65067	102593
27.65878	97481
27.66692	98622
27.67503	94206
27.68317	91003
27.69128	97963
27.69940	96268
27.70753	91008
27.71565	96212
27.72378	90718
27.73190	88093
27.74002	85220
27.74815	86785
27.75627	74302
27.76438	76341
27.77252	77134
27.78063	79379
27.78877	81953
27.79688	84758
27.80500	81437
27.81313	83603
27.82125	82973
27.82938	82957
27.83750	83463
27.84562	84469
27.85375	83001
27.86187	77543
27.87000	72904
27.87812	74873
27.88623	71960
27.89437	71461
27.90248	72063
27.91060	68864
27.91873	73583
27.92685	69200
27.93498	74049
27.94310	72996
27.95122	75922
27.95935	74408
27.96747	72517
27.97560	74002
27.98372	73764
27.99183	71383
27.99997	70568
28.00808	78322
28.01622	82219
28.02433	83422
28.03245	93046
28.04058	106313
28.04870	122710
28.05682	127528
28.06495	123838
28.07307	129857
28.08120	112404
28.08932	103468
28.09743	101602
28.10557	90943
28.11368	90037
28.12182	82681
28.12993	77955
28.13805	72855
28.14618	70696
28.15430	70006
28.16242	71063
28.17055	76571
28.17867	68630
28.18680	69368
28.19492	74928
28.20303	81398
28.21117	88939
28.21928	103190
28.22742	106909
28.23553	112805
28.24365	106052
28.25178	103476
28.25990	97211
28.26803	80857
28.27615	78189
28.28427	73397
28.29240	73647
28.30052	81180
28.30863	89958
28.31677	95230
28.32488	111566
28.33302	135633
28.34113	164006
28.34925	180867
28.35738	218145
28.36550	242683
28.37363	264376
28.38175	301773
28.38987	308002
28.39800	293767
28.40612	292686
28.41425	261612
28.42237	248501
28.43048	229068
28.43862	219348
28.44673	190741
28.45485	174128
28.46298	163457
28.47110	145417
28.47923	136055
28.48735	142932
28.49547	134744
28.50360	142808
28.51172	137897
28.51985	132143
28.52797	124450
28.53608	114250
28.54422	104055
28.55233	103361
28.56045	96811
28.56858	99423
28.57670	89812
28.58483	87856
28.59295	85535
28.60107	84319
28.60920	83274
28.61732	86202
28.62545	91351
28.63357	90981
28.64168	93443
28.64982	98493
28.65793	96840
28.66607	98674
28.67418	95191
28.68230	95230
28.69043	88587
28.69855	85633
28.70667	84093
28.71480	74218
28.72292	75061
28.73105	76014
28.73917	70922
28.74728	75764
28.75542	77563
28.76353	74517
28.77167	79869
28.77978	82558
28.78790	88744
28.79603	82975
28.80415	86794
28.81227	88331
28.82040	86213
28.82852	84794
28.83665	86663
28.84477	79553
28.85288	73704
28.86102	72620
28.86913	77331
28.87727	71780
28.88538	71819
28.89350	76570
28.90163	79576
28.90975	81887
28.91788	85393
28.92600	82215
28.93412	82625
28.94225	83005
28.95037	87281
28.95848	85231
28.96662	90036
28.97473	89444
28.98287	83720
28.99098	82339
28.99910	77234
29.00723	76550
29.01535	71264
29.02348	76714
29.03160	68020
29.03972	65162
29.04785	68285
29.05597	67854
29.06410	67462
29.07222	71083
29.08033	68168
29.08847	71123
29.09658	72224
29.10470	70928
29.11283	67484
29.12095	72273
29.12908	67674
29.13720	66963
29.14532	67572
29.15345	68251
29.16157	64976
29.16970	67366
29.17782	67782
29.18593	71802
29.19407	77489
29.20218	82707
29.21030	97030
29.21843	104270
29.22655	113507
29.23468	112225
29.24280	115709
29.25092	112145
29.25905	107861
29.26717	107579
29.27530	101777
29.28342	99201
29.29153	89995
29.29967	85988
29.30778	80037
29.31592	73061
29.32403	71550
29.33215	63599
29.34028	65369
29.34840	68712
29.35652	61633
29.36465	71699
29.37277	61339
29.38090	60931
29.38902	65233
29.39713	68161
29.40527	62819
29.41338	68388
29.42152	68251
29.42963	69446
29.43775	66585
29.44588	60654
29.45400	61040
29.46213	60966
29.47025	61937
29.47837	58921
29.48650	62230
29.49462	63259
29.50273	66967
29.51087	73757
29.51898	73431
29.52712	70094
29.53523	67407
29.54335	61095
29.55148	66154
29.55960	64743
29.56773	66719
29.57585	55671
29.58397	59102
29.59210	53276
29.60022	54717
29.60833	58444
29.61647	54508
29.62458	55131
29.63272	56380
29.64083	58396
29.64895	52707
29.65708	53683
29.66520	55948
29.67333	59483
29.68145	59399
29.68957	58597
29.69770	64538
29.70582	65095
29.71395	63918
29.72207	67360
29.73018	65562
29.73832	60462
29.74643	62390
29.75455	61620
29.76268	63144
29.77080	55113
29.77893	57946
29.78705	53076
29.79517	52106
29.80330	58392
29.81142	53284
29.81955	54078
29.82767	55382
29.83578	52389
29.84392	54112
29.85203	51644
29.86017	52951
29.86828	62930
29.87640	63444
29.88453	80741
29.89265	105174
29.90077	121501
29.90890	130326
29.91702	148786
29.92515	132450
29.93327	115096
29.94138	99309
29.94952	78957
29.95763	70976
29.96577	73291
29.97388	81186
29.98200	88014
29.99013	99744
29.99825	115125
30.00637	122793
30.01450	137695
30.02262	142085
30.03075	145482
30.03887	145261
30.04698	153843
30.05512	146696
30.06323	138500
30.07137	140448
30.07948	135240
30.08760	129625
30.09573	135025
30.10385	123161
30.11198	113860
30.12010	107387
30.12822	96573
30.13635	100703
30.14447	95454
30.15258	89782
30.16072	89960
30.16883	88169
30.17697	86770
30.18508	91131
30.19320	85354
30.20133	88427
30.20945	95219
30.21758	93320
30.22570	90462
30.23382	90210
30.24195	81109
30.25007	76601
30.25818	69503
30.26632	68039
30.27443	70103
30.28257	62522
30.29068	64634
30.29880	67170
30.30693	65985
30.31505	68931
30.32318	67244
30.33130	66447
30.33942	66045
30.34755	66628
30.35567	63738
30.36380	69421
30.37192	67829
30.38003	65434
30.38817	63202
30.39628	58460
30.40440	63611
30.41253	61084
30.42065	59830
30.42878	60631
30.43690	58489
30.44502	64604
30.45315	62501
30.46127	61584
30.46940	53196
30.47752	59152
30.48563	58937
30.49377	57014
30.50188	57175
30.51002	55997
30.51813	56559
30.52625	57617
30.53438	59764
30.54250	58500
30.55062	58058
30.55875	58191
30.56687	64616
30.57500	55547
30.58312	57025
30.59123	57190
30.59937	56983
30.60748	59546
30.61562	55632
30.62373	59709
30.63185	57735
30.63998	55305
30.64810	58062
30.65622	57635
30.66435	56987
30.67247	59958
30.68060	53851
30.68872	55493
30.69683	52963
30.70497	64812
30.71308	61861
30.72122	58323
30.72933	57258
30.73745	56098
30.74558	57732
30.75370	57308
30.76183	55502
30.76995	57813
30.77807	61758
30.78620	65399
30.79432	70782
30.80243	71854
30.81057	83984
30.81868	93320
30.82682	93499
30.83493	92589
30.84305	80483
30.85118	80635
30.85930	73821
30.86743	72548
30.87555	72625
30.88367	75943
30.89180	74878
30.89992	75505
30.90805	74617
30.91617	73423
30.92428	65251
30.93242	66977
30.94053	62598
30.94865	62939
30.95678	64202
30.96490	67818
30.97303	64285
30.98115	65139
30.98927	65476
30.99740	63717
31.00552	61076
31.01365	66041
31.02177	73821
31.02988	77168
31.03802	89757
31.04613	90638
31.05425	89501
31.06238	88363
31.07050	80975
31.07863	86336
31.08675	104916
31.09487	115560
31.10300	164269
31.11112	213096
31.11925	256245
31.12737	239240
31.13548	209077
31.14362	161402
31.15173	126005
31.15987	100925
31.16798	77352
31.17610	77347
31.18423	77453
31.19235	74809
31.20047	80652
31.20860	90175
31.21672	108075
31.22485	117152
31.23297	121407
31.24108	123564
31.24922	107188
31.25733	102983
31.26547	90223
31.27358	81178
31.28170	66591
31.28983	66312
31.29795	59593
31.30607	56168
31.31420	58258
31.32232	56091
31.33045	52743
31.33857	58065
31.34668	59120
31.35482	64487
31.36293	61739
31.37107	62856
31.37918	68975
31.38730	69833
31.39543	72211
31.40355	76580
31.41168	74303
31.41980	70467
31.42792	67152
31.43605	65058
31.44417	61139
31.45228	60567
31.46042	55259
31.46853	56763
31.47667	58694
31.48478	56906
31.49290	55626
31.50103	58126
31.50915	63322
31.51728	61613
31.52540	61374
31.53352	65882
31.54165	63137
31.54977	65142
31.55790	66041
31.56602	59092
31.57413	56695
31.58227	58670
31.59038	56963
31.59850	59117
31.60663	63918
31.61475	61771
31.62288	62159
31.63100	68692
31.63912	64052
31.64725	69421
31.65537	76250
31.66350	68185
31.67162	71274
31.67973	74160
31.68787	82433
31.69598	73234
31.70410	77291
31.71223	75158
31.72035	69397
31.72848	74401
31.73660	66115
31.74472	66643
31.75285	67378
31.76097	69028
31.76910	68352
31.77722	71404
31.78533	67522
31.79347	67020
31.80158	70417
31.80972	71830
31.81783	74782
31.82595	72546
31.83408	78326
31.84220	74144
31.85032	82517
31.85845	75516
31.86657	77241
31.87470	78288
31.88282	77558
31.89093	78116
31.89907	82599
31.90718	82404
31.91532	86241
31.92343	95701
31.93155	91913
31.93968	96289
31.94780	95541
31.95593	105425
31.96405	109228
31.97217	112744
31.98030	107012
31.98842	122082
31.99653	119100
32.00467	132517
32.01278	123386
32.02092	119566
32.02903	109372
32.03715	104237
32.04528	103207
32.05340	95652
32.06153	93938
32.06965	86457
32.07777	80878
32.08590	86299
32.09402	89334
32.10213	85932
32.11027	80294
32.11838	80202
32.12652	71966
32.13463	72663
32.14275	62993
32.15088	65720
32.15900	74833
32.16713	71495
32.17525	67924
32.18337	66971
32.19150	66250
32.19962	69118
32.20775	71012
32.21587	64235
32.22398	66112
32.23212	63129
32.24023	64820
32.24835	63535
32.25648	68782
32.26460	66606
32.27273	70017
32.28085	68800
32.28897	63814
32.29710	68046
32.30522	64182
32.31335	59120
32.32147	61434
32.32958	63765
32.33772	62719
32.34583	66298
32.35397	67384
32.36208	68197
32.37020	63414
32.37833	65031
32.38645	63213
32.39457	62397
32.40270	61858
32.41082	62321
32.41895	58514
32.42707	61124
32.43518	58273
32.44332	59330
32.45143	57294
32.45957	55720
32.46768	60275
32.47580	57818
32.48393	55013
32.49205	61071
32.50017	52705
32.50830	56112
32.51642	54628
32.52455	55926
32.53267	53524
32.54078	52622
32.54892	57710
32.55703	53101
32.56517	53992
32.57328	58549
32.58140	53556
32.58953	50934
32.59765	50490
32.60578	55557
32.61390	53036
32.62202	53976
32.63015	50593
32.63827	51561
32.64638	51812
32.65452	57730
32.66263	53933
32.67077	54927
32.67888	64911
32.68700	60791
32.69513	64833
32.70325	64853
32.71138	62539
32.71950	66318
32.72762	62817
32.73575	61569
32.74387	57891
32.75200	59476
32.76012	52877
32.76823	55067
32.77637	58349
32.78448	54997
32.79260	51759
32.80073	52950
32.80885	53328
32.81698	50010
32.82510	53659
32.83322	51891
32.84135	51768
32.84947	50315
32.85760	58637
32.86572	56507
32.87383	51458
32.88197	55786
32.89008	51985
32.89820	58832
32.90633	57348
32.91445	62053
32.92258	60968
32.93070	69114
32.93882	58269
32.94695	54261
32.95507	55154
32.96320	55239
32.97132	59661
32.97943	59801
32.98757	59984
32.99568	69936
33.00382	71583
33.01193	78506
33.02005	73763
33.02818	69944
33.03630	70358
33.04442	63414
33.05255	55486
33.06067	58512
33.06880	62328
33.07692	69981
33.08503	73812
33.09317	89765
33.10128	92360
33.10942	110063
33.11753	118903
33.12565	127524
33.13378	129399
33.14190	113297
33.15002	98879
33.15815	84261
33.16627	72354
33.17440	65680
33.18252	67477
33.19063	58205
33.19877	54474
33.20688	60360
33.21502	61537
33.22313	61351
33.23125	61222
33.23938	61522
33.24750	57486
33.25563	63461
33.26375	68726
33.27187	60742
33.28000	63108
33.28812	56501
33.29623	56327
33.30437	58594
33.31248	58373
33.32062	55578
33.32873	61475
33.33685	61271
33.34498	60875
33.35310	57637
33.36123	55004
33.36935	61809
33.37747	64473
33.38560	61875
33.39372	58490
33.40185	55652
33.40997	58669
33.41808	55788
33.42622	54247
33.43433	52427
33.44245	54067
33.45058	56153
33.45870	49650
33.46683	51527
33.47495	56562
33.48307	51970
33.49120	48700
33.49932	50667
33.50745	52011
33.51557	54818
33.52368	53886
33.53182	57632
33.53993	56322
33.54805	57348
33.55618	61369
33.56430	60219
33.57243	59746
33.58055	62564
33.58867	60727
33.59680	54702
33.60492	52967
33.61305	52127
33.62117	54655
33.62928	56998
33.63742	54465
33.64553	59052
33.65367	55580
33.66178	62295
33.66990	68649
33.67803	63193
33.68615	60232
33.69427	57559
33.70240	54191
33.71052	52507
33.71865	50989
33.72677	49222
33.73488	50370
33.74302	54750
33.75113	50772
33.75927	45703
33.76738	51447
33.77550	47820
33.78363	50991
33.79175	51670
33.79988	51092
33.80800	51270
33.81612	47036
33.82425	49442
33.83237	52009
33.84048	55119
33.84862	60760
33.85673	57116
33.86487	53048
33.87298	62077
33.88110	54499
33.88923	57560
33.89735	57183
33.90548	55315
33.91360	56517
33.92172	63725
33.92985	52177
33.93797	51856
33.94608	50448
33.95422	54805
33.96233	51837
33.97047	54722
33.97858	50786
33.98670	52209
33.99483	51413
34.00295	52450
34.01108	55715
34.01920	53451
34.02732	53276
34.03545	49572
34.04357	50810
34.05170	51203
34.05982	60318
34.06793	59479
34.07607	53871
34.08418	54595
34.09230	54024
34.10043	55164
34.10855	57843
34.11668	55183
34.12480	57650
34.13292	57653
34.14105	53673
34.14917	56360
34.15730	55215
34.16542	54451
34.17353	54120
34.18167	54611
34.18978	52268
34.19790	57723
34.20603	54943
34.21415	54328
34.22228	53126
34.23040	54466
34.23852	54004
34.24665	56799
34.25477	53272
34.26290	52798
34.27102	55037
34.27913	54934
34.28727	49216
34.29538	51357
34.30352	52517
34.31163	50182
34.31975	58262
34.32788	52436
34.33600	53812
34.34412	51726
34.35225	49678
34.36037	50388
34.36850	46178
34.37662	48026
34.38473	53122
34.39287	52379
34.40098	50856
34.40912	50239
34.41723	55236
34.42535	49594
34.43348	53543
34.44160	51696
34.44973	50475
34.45785	58550
34.46597	49619
34.47410	53490
34.48222	59537
34.49033	54880
34.49847	54097
34.50658	51651
34.51472	53804
34.52283	56086
34.53095	59663
34.53908	61796
34.54720	74218
34.55533	85065
34.56345	88512
34.57157	91107
34.57970	91947
34.58782	93906
34.59593	85798
34.60407	77192
34.61218	67292
34.62032	70480
34.62843	67396
34.63655	62644
34.64468	58876
34.65280	59500
34.66093	65549
34.66905	58911
34.67717	59656
34.68530	57191
34.69342	59553
34.70155	58338
34.70967	55155
34.71778	58999
34.72592	58635
34.73403	56189
34.74215	57621
34.75028	54384
34.75840	58227
34.76653	57372
34.77465	54801
34.78277	55150
34.79090	59064
34.79902	60225
34.80715	62801
34.81527	65045
34.82338	58912
34.83152	59791
34.83963	60877
34.84777	57545
34.85588	61076
34.86400	58847
34.87213	61551
34.88025	58447
34.88837	53818
34.89650	57547
34.90462	55052
34.91275	53995
34.92087	56748
34.92898	57533
34.93712	60316
34.94523	71783
34.95337	90684
34.96148	138567
34.96960	201857
34.97773	256890
34.98585	340839
34.99397	370481
35.00210	317986
35.01022	247185
35.01835	169119
35.02647	122516
35.03458	97611
35.04272	78767
35.05083	77639
35.05897	70558
35.06708	73022
35.07520	65878
35.08333	69685
35.09145	69268
35.09958	66341
35.10770	67854
35.11582	64470
35.12395	65299
35.13207	58691
35.14018	59811
35.14832	63359
35.15643	66875
35.16457	65923
35.17268	61333
35.18080	63437
35.18893	68310
35.19705	64454
35.20518	63367
35.21330	58134
35.22142	57958
35.22955	62732
35.23767	56923
35.24580	63618
35.25392	62439
35.26203	61519
35.27017	64504
35.27828	68746
35.28640	65729
35.29453	66292
35.30265	70307
35.31078	63964
35.31890	57907
35.32702	58249
35.33515	56594
35.34327	58761
35.35140	59692
35.35952	56224
35.36763	55978
35.37577	62495
35.38388	54269
35.39200	58320
35.40013	61373
35.40825	63033
35.41638	67914
35.42450	68375
35.43262	76053
35.44075	75961
35.44887	78531
35.45700	75231
35.46512	72247
35.47323	72078
35.48137	72078
35.48948	66241
35.49762	64386
35.50573	62151
35.51385	66074
35.52198	75311
35.53010	63327
35.53822	66778
35.54635	57642
35.55447	63032
35.56260	62359
35.57072	63472
35.57883	62872
35.58697	63870
35.59508	64955
35.60322	59907
35.61133	60769
35.61945	64195
35.62758	58881
35.63570	57837
35.64382	57909
35.65195	57542
35.66007	59987
35.66820	62419
35.67632	60479
35.68443	56072
35.69257	59563
35.70068	59378
35.70882	61718
35.71693	62373
35.72505	63708
35.73318	55575
35.74130	55769
35.74943	63535
35.75755	68510
35.76567	66419
35.77380	68621
35.78192	69807
35.79003	69218
35.79817	68255
35.80628	71369
35.81442	63851
35.82253	59716
35.83065	62820
35.83878	60097
35.84690	58030
35.85503	62831
35.86315	58516
35.87127	60469
35.87940	62271
35.88752	58147
35.89565	61590
35.90377	59958
35.91188	64011
35.92002	59987
35.92813	59356
35.93625	62862
35.94438	54980
35.95250	61553
35.96063	57959
35.96875	60636
35.97687	61699
35.98500	59343
35.99312	62700
36.00125	60066
36.00937	62387
36.01748	56577
36.02562	67151
36.03373	63641
36.04185	60478
36.04998	64034
36.05810	65977
36.06623	66024
36.07435	68071
36.08247	55270
36.09060	53721
36.09872	61678
36.10685	58116
36.11497	55436
36.12308	63737
36.13122	64610
36.13933	70478
36.14747	71859
36.15558	69718
36.16370	70996
36.17183	76652
36.17995	70194
36.18807	66558
36.19620	62463
36.20432	63937
36.21245	62089
36.22057	57431
36.22868	58234
36.23682	61438
36.24493	59136
36.25307	61507
36.26118	58670
36.26930	64855
36.27743	66400
36.28555	59740
36.29368	60902
36.30180	61774
36.30992	61760
36.31805	64002
36.32617	67154
36.33428	68227
36.34242	65894
36.35053	70213
36.35867	63121
36.36678	59096
36.37490	59387
36.38303	56442
36.39115	57274
36.39928	57902
36.40740	65107
36.41552	64915
36.42365	61186
36.43177	60388
36.43988	64661
36.44802	64310
36.45613	60111
36.46427	58845
36.47238	57519
36.48050	64604
36.48863	55070
36.49675	65199
36.50488	60895
36.51300	64686
36.52112	60906
36.52925	60561
36.53737	67448
36.54550	60621
36.55362	60608
36.56173	62305
36.56987	57668
36.57798	58293
36.58610	57400
36.59423	68557
36.60235	63551
36.61048	56560
36.61860	58277
36.62672	58011
36.63485	59116
36.64297	62848
36.65110	61024
36.65922	62804
36.66733	60735
36.67547	58244
36.68358	61785
36.69170	60162
36.69983	60603
36.70795	61114
36.71608	64330
36.72420	65880
36.73232	60897
36.74045	61356
36.74857	58899
36.75670	60349
36.76482	54933
36.77293	61267
36.78107	59368
36.78918	55776
36.79732	60132
36.80543	62761
36.81355	60510
36.82168	59843
36.82980	59779
36.83792	61282
36.84605	63285
36.85417	68240
36.86230	63459
36.87042	64246
36.87853	60148
36.88667	62047
36.89478	59928
36.90292	57599
36.91103	65221
36.91915	62817
36.92728	66657
36.93540	64287
36.94353	57818
36.95165	65205
36.95977	69352
36.96790	72899
36.97602	73480
36.98413	79333
36.99227	80728
37.00038	79810
37.00852	75950
37.01663	68322
37.02475	70759
37.03288	71574
37.04100	75014
37.04913	67175
37.05725	77730
37.06537	75216
37.07350	72411
37.08162	78550
37.08973	86172
37.09787	80454
37.10598	78702
37.11412	79505
37.12223	80322
37.13035	78696
37.13848	82231
37.14660	81357
37.15473	73985
37.16285	79126
37.17097	71958
37.17910	75212
37.18722	77105
37.19535	76841
37.20347	76253
37.21158	83699
37.21972	80126
37.22783	82112
37.23595	82692
37.24408	79162
37.25220	82382
37.26033	76641
37.26845	75479
37.27657	76106
37.28470	71371
37.29282	70898
37.30095	68835
37.30907	76105
37.31718	73457
37.32532	74130
37.33343	82199
37.34157	80724
37.34968	83859
37.35780	84516
37.36593	91510
37.37405	82202
37.38217	85106
37.39030	85435
37.39842	89582
37.40655	81212
37.41467	85126
37.42278	82950
37.43092	85527
37.43903	83128
37.44717	78019
37.45528	83463
37.46340	81872
37.47153	81361
37.47965	80253
37.48777	81221
